Output Power vs Speed
n (rpm)
(W)
0	0.000000
44.3203	171.081118
88.6406	342.624781
132.961	512.409258
177.281	680.330335
221.602	846.037061
265.922	1009.289582
310.242	1169.602021
354.563	1326.612894
398.883	1480.038013
443.203	1629.335647
487.523	1773.916807
531.844	1913.140137
576.164	2045.956302
620.484	2171.466603
664.805	2288.136163
709.125	2394.534421
753.445	2488.374059
797.766	2567.038524
842.086	2627.577985
886.406	2665.787795
930.727	2677.892992
975.047	2663.196423
1019.37	2623.460982
1063.69	2562.411328
1108.01	2488.549759
1152.33	2406.153543
1196.65	2315.768158
1240.97	2218.953142
1285.29	2116.795698
1329.61	2010.140355
1373.93	1899.635558
1418.25	1785.692316
1462.57	1668.511296
1506.89	1548.546975
1551.21	1425.821591
1595.53	1300.503352
1639.85	1172.689037
1684.17	1042.508036
1728.49	909.882342
1772.81	774.908585
1817.13	637.652053
1861.45	498.080558
1905.77	356.423155
1950.09	213.260719
1994.41	68.884671
2016.72	0.000000
Output Power
